Data from QEP037381__38__10-18-31-063.txt Node

Date: Fri Apr 21 10:18:31 EDT 2023
User: dcclab
Spectrometer: QEP03738
Trigger mode: 4
Integration Time (sec): 1.000000E1
Scans to average: 1
Electric dark correction enabled: true
Nonlinearity correction enabled: false
Boxcar width: 0
XAxis mode: Wavelengths
Number of Pixels in Spectrum: 1044
>>>>>Begin Spectral Data<<<<<
784.041	8
784.3	4
784.558	-3
784.817	-3
785.075	236
785.334	207
785.592	202
785.851	203
786.109	224
786.368	236
786.626	254
786.884	278
787.143	266
787.401	215
787.659	277
787.917	254
788.175	299
788.433	274
788.691	274
788.949	283
789.207	296
789.465	264
789.723	271
789.98	250
790.238	320
790.496	298
790.753	293
791.011	354
791.268	307
791.526	304
791.783	341
792.041	312
792.298	262
792.556	324
792.813	310
793.07	291
793.327	286
793.584	380
793.841	309
794.099	327
794.356	389
794.613	287
794.869	319
795.126	285
795.383	286
795.64	298
795.897	267
796.153	324
796.41	302
796.667	292
796.923	298
797.18	301
797.436	319
797.693	276
797.949	332
798.206	371
798.462	257
798.718	332
798.974	293
799.231	329
799.487	328
799.743	330
799.999	341
800.255	333
800.511	314
800.767	342
801.023	306
801.279	320
801.534	329
801.79	333
802.046	304
802.302	352
802.557	349
802.813	348
803.068	291
803.324	332
803.579	310
803.835	299
804.09	351
804.345	292
804.601	275
804.856	302
805.111	325
805.366	308
805.621	325
805.876	326
806.131	318
806.386	303
806.641	277
806.896	305
807.151	373
807.406	313
807.661	334
807.915	316
808.17	334
808.425	331
808.679	277
808.934	370
809.188	304
809.443	342
809.697	353
809.951	302
810.206	297
810.46	352
810.714	348
810.968	359
811.223	284
811.477	324
811.731	344
811.985	272
812.239	242
812.493	286
812.747	306
813	271
813.254	318
813.508	332
813.762	310
814.015	286
814.269	311
814.522	336
814.776	338
815.03	335
815.283	328
815.536	336
815.79	329
816.043	328
816.296	324
816.55	326
816.803	312
817.056	398
817.309	342
817.562	341
817.815	388
818.068	287
818.321	290
818.574	284
818.827	331
819.079	293
819.332	407
819.585	324
819.838	396
820.09	308
820.343	371
820.595	283
820.848	336
821.1	349
821.353	325
821.605	320
821.857	381
822.11	282
822.362	303
822.614	280
822.866	332
823.118	274
823.37	373
823.622	327
823.874	302
824.126	361
824.378	294
824.63	304
824.882	323
825.134	315
825.385	344
825.637	331
825.888	307
826.14	320
826.392	294
826.643	289
826.895	370
827.146	317
827.397	296
827.649	389
827.9	301
828.151	280
828.402	286
828.653	317
828.905	333
829.156	370
829.407	297
829.658	315
829.909	355
830.159	329
830.41	343
830.661	356
830.912	341
831.162	307
831.413	313
831.664	362
831.914	321
832.165	339
832.415	349
832.666	327
832.916	362
833.167	302
833.417	389
833.667	353
833.917	335
834.168	385
834.418	345
834.668	324
834.918	299
835.168	309
835.418	258
835.668	336
835.918	359
836.167	342
836.417	297
836.667	351
836.917	360
837.166	325
837.416	354
837.666	366
837.915	325
838.165	351
838.414	292
838.663	271
838.913	324
839.162	289
839.411	388
839.661	308
839.91	323
840.159	319
840.408	343
840.657	333
840.906	338
841.155	362
841.404	317
841.653	343
841.902	305
842.15	328
842.399	340
842.648	320
842.897	357
843.145	287
843.394	303
843.642	314
843.891	356
844.139	346
844.388	292
844.636	264
844.884	327
845.133	302
845.381	316
845.629	351
845.877	299
846.125	305
846.373	342
846.621	301
846.869	354
847.117	324
847.365	334
847.613	339
847.861	355
848.108	378
848.356	351
848.604	303
848.851	333
849.099	334
849.346	334
849.594	341
849.841	354
850.089	305
850.336	280
850.583	294
850.831	312
851.078	335
851.325	301
851.572	364
851.819	370
852.066	330
852.313	321
852.56	301
852.807	273
853.054	294
853.301	307
853.548	310
853.794	398
854.041	326
854.288	289
854.534	379
854.781	327
855.028	310
855.274	393
855.52	326
855.767	313
856.013	357
856.26	626
856.506	309
856.752	359
856.998	329
857.244	308
857.49	344
857.736	344
857.982	342
858.228	355
858.474	299
858.72	335
858.966	338
859.212	346
859.458	333
859.703	350
859.949	315
860.195	368
860.44	364
860.686	304
860.931	397
861.177	309
861.422	379
861.667	320
861.913	340
862.158	330
862.403	369
862.648	359
862.893	383
863.138	319
863.384	319
863.629	360
863.873	350
864.118	325
864.363	276
864.608	348
864.853	373
865.098	339
865.342	352
865.587	328
865.832	374
866.076	352
866.321	328
866.565	325
866.81	269
867.054	338
867.298	348
867.543	307
867.787	367
868.031	328
868.275	342
868.519	319
868.764	339
869.008	325
869.252	371
869.496	333
869.739	341
869.983	399
870.227	368
870.471	314
870.715	367
870.958	344
871.202	307
871.446	324
871.689	310
871.933	329
872.176	336
872.42	338
872.663	319
872.906	380
873.15	338
873.393	276
873.636	374
873.879	363
874.122	386
874.366	343
874.609	373
874.852	335
875.095	353
875.337	331
875.58	271
875.823	350
876.066	377
876.309	398
876.551	306
876.794	291
877.037	368
877.279	311
877.522	308
877.764	357
878.007	310
878.249	361
878.491	311
878.734	373
878.976	356
879.218	298
879.46	381
879.702	387
879.945	362
880.187	329
880.429	370
880.671	370
880.912	394
881.154	366
881.396	274
881.638	355
881.88	355
882.121	317
882.363	334
882.605	395
882.846	362
883.088	369
883.329	319
883.571	301
883.812	316
884.053	323
884.295	326
884.536	406
884.777	320
885.018	349
885.259	359
885.5	277
885.742	508
885.982	355
886.223	310
886.464	324
886.705	298
886.946	345
887.187	278
887.428	371
887.668	315
887.909	313
888.15	293
888.39	374
888.631	411
888.871	385
889.111	363
889.352	364
889.592	350
889.833	361
890.073	346
890.313	416
890.553	312
890.793	341
891.033	321
891.273	325
891.513	347
891.753	411
891.993	360
892.233	367
892.473	432
892.713	360
892.952	323
893.192	358
893.432	312
893.671	375
893.911	344
894.15	343
894.39	290
894.629	315
894.869	372
895.108	358
895.347	326
895.587	362
895.826	335
896.065	313
896.304	378
896.543	392
896.782	289
897.021	348
897.26	344
897.499	403
897.738	404
897.977	356
898.216	337
898.454	352
898.693	345
898.932	377
899.17	339
899.409	354
899.647	344
899.886	336
900.124	367
900.363	322
900.601	349
900.839	354
901.078	357
901.316	340
901.554	348
901.792	348
902.03	308
902.268	327
902.506	368
902.744	333
902.982	405
903.22	309
903.458	344
903.695	381
903.933	385
904.171	336
904.409	344
904.646	387
904.884	349
905.121	419
905.359	379
905.596	359
905.833	336
906.071	342
906.308	403
906.545	379
906.783	309
907.02	356
907.257	309
907.494	336
907.731	354
907.968	381
908.205	337
908.442	334
908.679	359
908.915	341
909.152	362
909.389	304
909.626	349
909.862	326
910.099	360
910.335	406
910.572	321
910.808	360
911.045	336
911.281	322
911.518	409
911.754	346
911.99	359
912.226	351
912.463	317
912.699	342
912.935	355
913.171	347
913.407	326
913.643	395
913.879	351
914.114	361
914.35	340
914.586	368
914.822	326
915.057	448
915.293	312
915.529	325
915.764	406
916	384
916.235	371
916.471	398
916.706	314
916.941	338
917.177	346
917.412	394
917.647	385
917.882	329
918.117	403
918.352	381
918.588	418
918.823	356
919.057	364
919.292	294
919.527	413
919.762	360
919.997	437
920.232	370
920.466	428
920.701	316
920.935	382
921.17	365
921.405	334
921.639	397
921.873	366
922.108	395
922.342	403
922.576	336
922.811	357
923.045	408
923.279	426
923.513	312
923.747	414
923.981	410
924.215	365
924.449	378
924.683	338
924.917	347
925.151	359
925.385	431
925.618	387
925.852	396
926.086	343
926.319	382
926.553	364
926.786	389
927.02	371
927.253	429
927.486	413
927.72	349
927.953	406
928.186	369
928.42	403
928.653	346
928.886	343
929.119	408
929.352	366
929.585	401
929.818	351
930.051	398
930.284	426
930.516	339
930.749	353
930.982	419
931.215	403
931.447	349
931.68	376
931.912	355
932.145	356
932.377	370
932.61	515
932.842	326
933.074	391
933.307	349
933.539	433
933.771	432
934.003	358
934.236	439
934.468	465
934.7	377
934.932	411
935.164	360
935.395	360
935.627	406
935.859	394
936.091	341
936.323	414
936.554	436
936.786	388
937.017	337
937.249	393
937.481	328
937.712	400
937.943	381
938.175	373
938.406	358
938.637	459
938.869	341
939.1	409
939.331	370
939.562	420
939.793	404
940.024	428
940.255	454
940.486	394
940.717	388
940.948	393
941.179	352
941.409	385
941.64	375
941.871	394
942.102	377
942.332	369
942.563	431
942.793	421
943.024	347
943.254	386
943.484	430
943.715	427
943.945	397
944.175	348
944.405	324
944.636	346
944.866	385
945.096	403
945.326	344
945.556	408
945.786	426
946.016	382
946.245	343
946.475	370
946.705	381
946.935	387
947.164	416
947.394	366
947.624	386
947.853	441
948.083	403
948.312	385
948.542	342
948.771	336
949	347
949.23	367
949.459	370
949.688	442
949.917	394
950.146	407
950.375	443
950.604	366
950.833	451
951.062	438
951.291	399
951.52	372
951.749	392
951.978	368
952.206	381
952.435	376
952.664	416
952.892	429
953.121	400
953.349	445
953.578	430
953.806	404
954.035	371
954.263	418
954.491	377
954.719	429
954.948	389
955.176	385
955.404	330
955.632	410
955.86	413
956.088	417
956.316	444
956.544	472
956.772	416
956.999	396
957.227	495
957.455	401
957.683	430
957.91	396
958.138	390
958.365	405
958.593	390
958.82	355
959.048	448
959.275	417
959.502	403
959.73	387
959.957	415
960.184	452
960.411	380
960.638	471
960.865	412
961.092	454
961.319	355
961.546	452
961.773	450
962	419
962.227	469
962.454	431
962.68	422
962.907	442
963.134	402
963.36	430
963.587	478
963.813	427
964.04	470
964.266	410
964.493	507
964.719	473
964.945	490
965.171	394
965.398	462
965.624	493
965.85	419
966.076	441
966.302	482
966.528	449
966.754	471
966.98	492
967.206	483
967.431	407
967.657	504
967.883	487
968.109	482
968.334	425
968.56	426
968.785	452
969.011	407
969.236	474
969.462	424
969.687	451
969.912	509
970.138	503
970.363	430
970.588	468
970.813	448
971.038	436
971.263	472
971.488	485
971.713	516
971.938	513
972.163	409
972.388	460
972.613	442
972.838	466
973.062	454
973.287	459
973.512	414
973.736	452
973.961	442
974.185	449
974.41	483
974.634	390
974.858	429
975.083	473
975.307	496
975.531	450
975.755	388
975.98	438
976.204	389
976.428	398
976.652	404
976.876	386
977.1	439
977.324	412
977.547	459
977.771	459
977.995	438
978.219	388
978.442	514
978.666	450
978.89	439
979.113	448
979.337	459
979.56	414
979.783	511
980.007	401
980.23	461
980.453	415
980.677	461
980.9	435
981.123	371
981.346	480
981.569	467
981.792	484
982.015	440
982.238	421
982.461	450
982.684	441
982.907	432
983.129	424
983.352	487
983.575	467
983.797	479
984.02	437
984.242	447
984.465	460
984.687	489
984.91	520
985.132	485
985.354	513
985.577	490
985.799	483
986.021	424
986.243	444
986.465	466
986.687	523
986.909	565
987.131	489
987.353	460
987.575	504
987.797	486
988.019	421
988.241	477
988.462	430
988.684	519
988.906	542
989.127	565
989.349	450
989.57	490
989.792	537
990.013	541
990.234	545
990.456	585
990.677	565
990.898	501
991.119	506
991.341	547
991.562	485
991.783	535
992.004	486
992.225	455
992.446	535
992.667	454
992.887	539
993.108	446
993.329	583
993.55	524
993.77	485
993.991	485
994.212	543
994.432	515
994.653	540
994.873	554
995.093	437
995.314	488
995.534	548
995.754	584
995.975	617
996.195	504
996.415	565
996.635	521
996.855	559
997.075	529
997.295	532
997.515	484
997.735	578
997.955	524
998.174	518
998.394	507
998.614	562
998.834	517
999.053	592
999.273	560
999.492	607
999.712	578
999.931	529
1000.151	594
1000.37	568
1000.589	630
1000.809	568
1001.028	677
1001.247	626
1001.466	535
1001.685	696
1001.904	628
1002.123	614
1002.342	630
1002.561	600
1002.78	611
1002.999	708
1003.218	635
1003.436	636
1003.655	675
1003.874	633
1004.092	673
1004.311	692
1004.53	659
1004.748	743
1004.966	665
1005.185	721
1005.403	694
1005.622	669
1005.84	743
1006.058	660
1006.276	684
1006.494	1174
1006.712	676
1006.931	741
1007.149	654
1007.367	651
1007.584	658
1007.802	718
1008.02	658
1008.238	744
1008.456	727
1008.673	596
1008.891	689
1009.109	617
1009.326	655
1009.544	713
1009.761	587
1009.979	647
1010.196	629
1010.413	669
1010.631	673
1010.848	671
1011.065	663
1011.282	610
1011.5	565
1011.717	685
1011.934	622
1012.151	662
1012.368	633
1012.585	594
1012.801	643
1013.018	624
1013.235	587
1013.452	597
1013.669	593
1013.885	566
1014.102	613
1014.318	564
1014.535	522
1014.751	555
1014.968	581
1015.184	611
1015.401	518
1015.617	569
1015.833	547
1016.049	561
1016.266	545
1016.482	552
1016.698	494
1016.914	558
1017.13	517
1017.346	512
1017.562	589
1017.778	513
1017.993	482
1018.209	543
1018.425	525
1018.641	478
1018.856	476
1019.072	510
1019.288	553
1019.503	511
1019.719	427
1019.934	473
1020.149	547
1020.365	497
1020.58	468
1020.795	534
1021.011	491
1021.226	497
1021.441	540
1021.656	504
1021.871	453
1022.086	456
1022.301	472
1022.516	473
1022.731	521
1022.946	470
1023.16	466
1023.375	447
1023.59	454
1023.804	419
1024.019	537
1024.234	428
1024.448	470
1024.663	416
1024.877	434
1025.092	468
1025.306	484
1025.52	415
1025.734	517
1025.949	440
1026.163	432
1026.377	401
1026.591	444
1026.805	400
1027.019	385
1027.233	360
1027.447	320
1027.661	416
1027.875	379
1028.088	396
1028.302	335
1028.516	342
1028.73	361
1028.943	374
1029.157	323
1029.37	312
1029.584	-2
1029.797	-3
1030.011	-1
1030.224	0
