Data from QEP037381__73__10-24-21-071.txt Node

Date: Fri Apr 21 10:24:21 EDT 2023
User: dcclab
Spectrometer: QEP03738
Trigger mode: 4
Integration Time (sec): 1.000000E1
Scans to average: 1
Electric dark correction enabled: true
Nonlinearity correction enabled: false
Boxcar width: 0
XAxis mode: Wavelengths
Number of Pixels in Spectrum: 1044
>>>>>Begin Spectral Data<<<<<
784.041	12
784.3	2
784.558	-4
784.817	-4
785.075	223
785.334	215
785.592	204
785.851	186
786.109	230
786.368	241
786.626	255
786.884	277
787.143	254
787.401	203
787.659	281
787.917	252
788.175	289
788.433	278
788.691	272
788.949	279
789.207	308
789.465	261
789.723	266
789.98	252
790.238	315
790.496	308
790.753	280
791.011	344
791.268	307
791.526	310
791.783	327
792.041	318
792.298	252
792.556	320
792.813	315
793.07	305
793.327	293
793.584	372
793.841	304
794.099	321
794.356	398
794.613	291
794.869	324
795.126	299
795.383	287
795.64	301
795.897	261
796.153	327
796.41	305
796.667	291
796.923	293
797.18	298
797.436	329
797.693	298
797.949	343
798.206	359
798.462	272
798.718	331
798.974	306
799.231	331
799.487	323
799.743	323
799.999	352
800.255	327
800.511	306
800.767	327
801.023	320
801.279	328
801.534	331
801.79	338
802.046	303
802.302	339
802.557	333
802.813	338
803.068	291
803.324	338
803.579	310
803.835	309
804.09	346
804.345	288
804.601	264
804.856	312
805.111	328
805.366	314
805.621	314
805.876	338
806.131	325
806.386	302
806.641	274
806.896	307
807.151	361
807.406	306
807.661	324
807.915	320
808.17	333
808.425	326
808.679	291
808.934	370
809.188	299
809.443	339
809.697	350
809.951	302
810.206	290
810.46	362
810.714	329
810.968	361
811.223	278
811.477	327
811.731	335
811.985	266
812.239	242
812.493	284
812.747	314
813	265
813.254	321
813.508	328
813.762	299
814.015	305
814.269	322
814.522	344
814.776	325
815.03	339
815.283	320
815.536	345
815.79	333
816.043	326
816.296	320
816.55	311
816.803	321
817.056	403
817.309	341
817.562	337
817.815	385
818.068	282
818.321	281
818.574	290
818.827	344
819.079	289
819.332	402
819.585	339
819.838	398
820.09	297
820.343	369
820.595	280
820.848	338
821.1	344
821.353	317
821.605	307
821.857	381
822.11	283
822.362	294
822.614	277
822.866	319
823.118	268
823.37	371
823.622	326
823.874	314
824.126	357
824.378	291
824.63	305
824.882	325
825.134	296
825.385	360
825.637	337
825.888	294
826.14	319
826.392	302
826.643	289
826.895	373
827.146	311
827.397	303
827.649	381
827.9	299
828.151	298
828.402	294
828.653	315
828.905	325
829.156	358
829.407	290
829.658	316
829.909	383
830.159	349
830.41	356
830.661	355
830.912	332
831.162	312
831.413	315
831.664	354
831.914	325
832.165	333
832.415	341
832.666	346
832.916	368
833.167	310
833.417	394
833.667	351
833.917	338
834.168	382
834.418	351
834.668	323
834.918	275
835.168	310
835.418	260
835.668	331
835.918	367
836.167	358
836.417	301
836.667	361
836.917	368
837.166	319
837.416	365
837.666	363
837.915	326
838.165	341
838.414	300
838.663	274
838.913	343
839.162	294
839.411	391
839.661	309
839.91	335
840.159	317
840.408	336
840.657	310
840.906	337
841.155	364
841.404	327
841.653	344
841.902	308
842.15	342
842.399	339
842.648	312
842.897	353
843.145	287
843.394	295
843.642	311
843.891	365
844.139	332
844.388	298
844.636	263
844.884	331
845.133	298
845.381	322
845.629	348
845.877	293
846.125	303
846.373	340
846.621	300
846.869	357
847.117	333
847.365	328
847.613	345
847.861	351
848.108	374
848.356	348
848.604	301
848.851	335
849.099	345
849.346	318
849.594	350
849.841	345
850.089	309
850.336	299
850.583	320
850.831	311
851.078	337
851.325	303
851.572	367
851.819	349
852.066	317
852.313	331
852.56	285
852.807	285
853.054	296
853.301	313
853.548	307
853.794	411
854.041	335
854.288	270
854.534	388
854.781	313
855.028	297
855.274	388
855.52	327
855.767	302
856.013	341
856.26	637
856.506	313
856.752	369
856.998	325
857.244	308
857.49	349
857.736	333
857.982	353
858.228	348
858.474	294
858.72	328
858.966	353
859.212	345
859.458	345
859.703	355
859.949	314
860.195	367
860.44	362
860.686	304
860.931	388
861.177	309
861.422	381
861.667	320
861.913	327
862.158	330
862.403	368
862.648	376
862.893	383
863.138	340
863.384	310
863.629	357
863.873	347
864.118	319
864.363	275
864.608	348
864.853	364
865.098	334
865.342	359
865.587	341
865.832	368
866.076	348
866.321	325
866.565	342
866.81	278
867.054	322
867.298	337
867.543	307
867.787	358
868.031	338
868.275	342
868.519	329
868.764	341
869.008	347
869.252	379
869.496	328
869.739	345
869.983	375
870.227	376
870.471	310
870.715	363
870.958	349
871.202	303
871.446	324
871.689	304
871.933	337
872.176	322
872.42	316
872.663	327
872.906	364
873.15	337
873.393	278
873.636	373
873.879	368
874.122	399
874.366	335
874.609	362
874.852	341
875.095	348
875.337	327
875.58	277
875.823	346
876.066	381
876.309	398
876.551	303
876.794	298
877.037	365
877.279	302
877.522	318
877.764	366
878.007	311
878.249	340
878.491	311
878.734	364
878.976	348
879.218	297
879.46	385
879.702	384
879.945	358
880.187	338
880.429	367
880.671	375
880.912	374
881.154	371
881.396	285
881.638	370
881.88	347
882.121	318
882.363	325
882.605	401
882.846	362
883.088	383
883.329	322
883.571	305
883.812	316
884.053	325
884.295	329
884.536	393
884.777	321
885.018	336
885.259	363
885.5	293
885.742	521
885.982	362
886.223	302
886.464	342
886.705	294
886.946	335
887.187	278
887.428	376
887.668	323
887.909	311
888.15	303
888.39	354
888.631	420
888.871	373
889.111	353
889.352	346
889.592	325
889.833	341
890.073	352
890.313	399
890.553	312
890.793	335
891.033	330
891.273	326
891.513	342
891.753	408
891.993	366
892.233	366
892.473	426
892.713	366
892.952	332
893.192	354
893.432	321
893.671	383
893.911	334
894.15	351
894.39	286
894.629	319
894.869	362
895.108	351
895.347	320
895.587	374
895.826	329
896.065	316
896.304	356
896.543	382
896.782	292
897.021	352
897.26	349
897.499	405
897.738	405
897.977	357
898.216	340
898.454	349
898.693	331
898.932	365
899.17	352
899.409	357
899.647	354
899.886	321
900.124	370
900.363	316
900.601	361
900.839	352
901.078	359
901.316	367
901.554	344
901.792	362
902.03	308
902.268	347
902.506	388
902.744	340
902.982	379
903.22	319
903.458	327
903.695	368
903.933	380
904.171	338
904.409	337
904.646	382
904.884	339
905.121	407
905.359	382
905.596	387
905.833	342
906.071	350
906.308	402
906.545	370
906.783	311
907.02	347
907.257	306
907.494	357
907.731	357
907.968	370
908.205	336
908.442	336
908.679	362
908.915	361
909.152	365
909.389	300
909.626	343
909.862	336
910.099	371
910.335	398
910.572	306
910.808	356
911.045	343
911.281	330
911.518	406
911.754	346
911.99	364
912.226	349
912.463	318
912.699	334
912.935	350
913.171	347
913.407	336
913.643	389
913.879	361
914.114	361
914.35	346
914.586	365
914.822	329
915.057	436
915.293	312
915.529	324
915.764	411
916	385
916.235	383
916.471	408
916.706	314
916.941	360
917.177	343
917.412	380
917.647	390
917.882	326
918.117	398
918.352	378
918.588	420
918.823	356
919.057	365
919.292	294
919.527	420
919.762	354
919.997	423
920.232	379
920.466	423
920.701	313
920.935	379
921.17	353
921.405	335
921.639	411
921.873	371
922.108	385
922.342	398
922.576	345
922.811	353
923.045	401
923.279	424
923.513	315
923.747	415
923.981	397
924.215	366
924.449	358
924.683	331
924.917	348
925.151	365
925.385	440
925.618	397
925.852	398
926.086	331
926.319	383
926.553	370
926.786	399
927.02	386
927.253	422
927.486	422
927.72	343
927.953	396
928.186	369
928.42	405
928.653	343
928.886	350
929.119	396
929.352	397
929.585	394
929.818	359
930.051	407
930.284	419
930.516	340
930.749	354
930.982	406
931.215	412
931.447	358
931.68	370
931.912	367
932.145	374
932.377	377
932.61	515
932.842	316
933.074	389
933.307	354
933.539	429
933.771	423
934.003	380
934.236	425
934.468	460
934.7	375
934.932	417
935.164	368
935.395	352
935.627	377
935.859	389
936.091	351
936.323	415
936.554	442
936.786	385
937.017	340
937.249	404
937.481	327
937.712	404
937.943	387
938.175	365
938.406	367
938.637	459
938.869	346
939.1	407
939.331	365
939.562	422
939.793	395
940.024	427
940.255	436
940.486	388
940.717	396
940.948	395
941.179	357
941.409	392
941.64	379
941.871	405
942.102	378
942.332	374
942.563	415
942.793	396
943.024	347
943.254	374
943.484	433
943.715	424
943.945	424
944.175	335
944.405	315
944.636	351
944.866	391
945.096	394
945.326	341
945.556	402
945.786	438
946.016	385
946.245	343
946.475	379
946.705	369
946.935	384
947.164	410
947.394	360
947.624	396
947.853	426
948.083	412
948.312	389
948.542	343
948.771	334
949	363
949.23	373
949.459	377
949.688	454
949.917	400
950.146	402
950.375	464
950.604	345
950.833	447
951.062	439
951.291	406
951.52	369
951.749	390
951.978	376
952.206	373
952.435	370
952.664	417
952.892	422
953.121	414
953.349	434
953.578	437
953.806	427
954.035	363
954.263	412
954.491	374
954.719	417
954.948	387
955.176	396
955.404	342
955.632	405
955.86	422
956.088	400
956.316	439
956.544	475
956.772	407
956.999	388
957.227	488
957.455	392
957.683	435
957.91	395
958.138	401
958.365	399
958.593	410
958.82	368
959.048	447
959.275	409
959.502	410
959.73	384
959.957	429
960.184	450
960.411	386
960.638	471
960.865	429
961.092	455
961.319	374
961.546	460
961.773	453
962	412
962.227	478
962.454	435
962.68	419
962.907	456
963.134	402
963.36	430
963.587	472
963.813	415
964.04	474
964.266	420
964.493	509
964.719	485
964.945	504
965.171	399
965.398	464
965.624	502
965.85	426
966.076	444
966.302	482
966.528	443
966.754	480
966.98	478
967.206	484
967.431	422
967.657	508
967.883	496
968.109	487
968.334	427
968.56	427
968.785	438
969.011	411
969.236	486
969.462	417
969.687	452
969.912	486
970.138	510
970.363	437
970.588	475
970.813	471
971.038	439
971.263	462
971.488	469
971.713	525
971.938	519
972.163	410
972.388	460
972.613	436
972.838	460
973.062	467
973.287	472
973.512	392
973.736	454
973.961	448
974.185	433
974.41	483
974.634	407
974.858	429
975.083	472
975.307	499
975.531	445
975.755	391
975.98	431
976.204	385
976.428	406
976.652	408
976.876	398
977.1	427
977.324	413
977.547	457
977.771	478
977.995	434
978.219	382
978.442	520
978.666	457
978.89	456
979.113	442
979.337	436
979.56	409
979.783	525
980.007	406
980.23	449
980.453	419
980.677	457
980.9	448
981.123	357
981.346	476
981.569	465
981.792	491
982.015	460
982.238	432
982.461	452
982.684	430
982.907	429
983.129	426
983.352	468
983.575	462
983.797	488
984.02	424
984.242	447
984.465	462
984.687	479
984.91	511
985.132	503
985.354	530
985.577	494
985.799	489
986.021	415
986.243	456
986.465	458
986.687	513
986.909	581
987.131	506
987.353	471
987.575	508
987.797	468
988.019	417
988.241	483
988.462	455
988.684	489
988.906	529
989.127	570
989.349	447
989.57	493
989.792	523
990.013	538
990.234	553
990.456	578
990.677	553
990.898	506
991.119	521
991.341	548
991.562	487
991.783	541
992.004	481
992.225	460
992.446	523
992.667	442
992.887	536
993.108	456
993.329	584
993.55	511
993.77	475
993.991	483
994.212	536
994.432	524
994.653	565
994.873	546
995.093	440
995.314	483
995.534	566
995.754	587
995.975	610
996.195	510
996.415	551
996.635	524
996.855	546
997.075	516
997.295	525
997.515	514
997.735	562
997.955	554
998.174	519
998.394	512
998.614	571
998.834	504
999.053	596
999.273	564
999.492	603
999.712	559
999.931	523
1000.151	595
1000.37	563
1000.589	630
1000.809	556
1001.028	694
1001.247	635
1001.466	534
1001.685	686
1001.904	637
1002.123	618
1002.342	638
1002.561	612
1002.78	633
1002.999	696
1003.218	633
1003.436	625
1003.655	689
1003.874	619
1004.092	641
1004.311	692
1004.53	665
1004.748	742
1004.966	643
1005.185	709
1005.403	701
1005.622	675
1005.84	758
1006.058	655
1006.276	685
1006.494	1149
1006.712	686
1006.931	728
1007.149	648
1007.367	645
1007.584	669
1007.802	730
1008.02	649
1008.238	727
1008.456	718
1008.673	595
1008.891	683
1009.109	624
1009.326	659
1009.544	722
1009.761	596
1009.979	654
1010.196	629
1010.413	678
1010.631	674
1010.848	673
1011.065	657
1011.282	595
1011.5	551
1011.717	675
1011.934	628
1012.151	657
1012.368	638
1012.585	593
1012.801	627
1013.018	611
1013.235	594
1013.452	592
1013.669	590
1013.885	577
1014.102	617
1014.318	551
1014.535	521
1014.751	561
1014.968	570
1015.184	627
1015.401	534
1015.617	578
1015.833	530
1016.049	546
1016.266	537
1016.482	561
1016.698	496
1016.914	564
1017.13	518
1017.346	518
1017.562	595
1017.778	519
1017.993	494
1018.209	546
1018.425	539
1018.641	492
1018.856	459
1019.072	506
1019.288	539
1019.503	495
1019.719	428
1019.934	447
1020.149	553
1020.365	506
1020.58	456
1020.795	535
1021.011	502
1021.226	490
1021.441	553
1021.656	493
1021.871	455
1022.086	462
1022.301	463
1022.516	466
1022.731	532
1022.946	467
1023.16	464
1023.375	455
1023.59	446
1023.804	419
1024.019	551
1024.234	428
1024.448	483
1024.663	417
1024.877	433
1025.092	470
1025.306	495
1025.52	407
1025.734	490
1025.949	444
1026.163	435
1026.377	390
1026.591	446
1026.805	381
1027.019	392
1027.233	351
1027.447	317
1027.661	406
1027.875	381
1028.088	394
1028.302	340
1028.516	325
1028.73	356
1028.943	365
1029.157	321
1029.37	310
1029.584	-1
1029.797	-2
1030.011	-3
1030.224	0
