Data from QEP037381__95__10-28-01-076.txt Node

Date: Fri Apr 21 10:28:01 EDT 2023
User: dcclab
Spectrometer: QEP03738
Trigger mode: 4
Integration Time (sec): 1.000000E1
Scans to average: 1
Electric dark correction enabled: true
Nonlinearity correction enabled: false
Boxcar width: 0
XAxis mode: Wavelengths
Number of Pixels in Spectrum: 1044
>>>>>Begin Spectral Data<<<<<
784.041	9
784.3	-1
784.558	-1
784.817	-3
785.075	225
785.334	214
785.592	197
785.851	190
786.109	232
786.368	228
786.626	259
786.884	271
787.143	254
787.401	209
787.659	285
787.917	246
788.175	304
788.433	280
788.691	274
788.949	292
789.207	301
789.465	247
789.723	278
789.98	255
790.238	330
790.496	313
790.753	289
791.011	355
791.268	298
791.526	304
791.783	319
792.041	326
792.298	247
792.556	324
792.813	313
793.07	306
793.327	300
793.584	378
793.841	297
794.099	326
794.356	371
794.613	283
794.869	332
795.126	289
795.383	272
795.64	303
795.897	268
796.153	326
796.41	294
796.667	288
796.923	306
797.18	293
797.436	333
797.693	294
797.949	337
798.206	361
798.462	268
798.718	317
798.974	309
799.231	343
799.487	336
799.743	336
799.999	357
800.255	343
800.511	310
800.767	342
801.023	299
801.279	319
801.534	324
801.79	344
802.046	306
802.302	359
802.557	340
802.813	356
803.068	290
803.324	332
803.579	315
803.835	305
804.09	354
804.345	296
804.601	275
804.856	311
805.111	325
805.366	318
805.621	305
805.876	331
806.131	310
806.386	302
806.641	277
806.896	306
807.151	369
807.406	312
807.661	325
807.915	309
808.17	329
808.425	326
808.679	293
808.934	369
809.188	300
809.443	339
809.697	369
809.951	309
810.206	294
810.46	350
810.714	339
810.968	345
811.223	279
811.477	319
811.731	340
811.985	264
812.239	234
812.493	287
812.747	299
813	268
813.254	318
813.508	340
813.762	303
814.015	290
814.269	321
814.522	330
814.776	334
815.03	324
815.283	326
815.536	341
815.79	345
816.043	325
816.296	333
816.55	336
816.803	316
817.056	390
817.309	334
817.562	336
817.815	364
818.068	281
818.321	292
818.574	298
818.827	340
819.079	292
819.332	421
819.585	331
819.838	399
820.09	318
820.343	366
820.595	292
820.848	341
821.1	348
821.353	323
821.605	304
821.857	370
822.11	273
822.362	302
822.614	280
822.866	325
823.118	269
823.37	376
823.622	314
823.874	303
824.126	358
824.378	277
824.63	313
824.882	325
825.134	322
825.385	355
825.637	311
825.888	299
826.14	321
826.392	297
826.643	285
826.895	372
827.146	314
827.397	304
827.649	389
827.9	296
828.151	274
828.402	277
828.653	316
828.905	320
829.156	388
829.407	291
829.658	324
829.909	371
830.159	341
830.41	339
830.661	351
830.912	327
831.162	312
831.413	317
831.664	336
831.914	325
832.165	330
832.415	342
832.666	346
832.916	356
833.167	303
833.417	398
833.667	337
833.917	330
834.168	396
834.418	354
834.668	328
834.918	298
835.168	311
835.418	252
835.668	332
835.918	360
836.167	356
836.417	287
836.667	357
836.917	382
837.166	329
837.416	373
837.666	369
837.915	307
838.165	342
838.414	300
838.663	269
838.913	338
839.162	297
839.411	391
839.661	324
839.91	326
840.159	313
840.408	323
840.657	324
840.906	329
841.155	362
841.404	333
841.653	340
841.902	303
842.15	342
842.399	348
842.648	328
842.897	341
843.145	290
843.394	298
843.642	311
843.891	358
844.139	336
844.388	295
844.636	264
844.884	319
845.133	290
845.381	321
845.629	354
845.877	293
846.125	309
846.373	324
846.621	304
846.869	359
847.117	327
847.365	318
847.613	348
847.861	351
848.108	392
848.356	346
848.604	304
848.851	335
849.099	345
849.346	324
849.594	348
849.841	362
850.089	319
850.336	284
850.583	310
850.831	316
851.078	342
851.325	291
851.572	371
851.819	346
852.066	327
852.313	315
852.56	296
852.807	283
853.054	297
853.301	325
853.548	317
853.794	406
854.041	343
854.288	281
854.534	393
854.781	320
855.028	305
855.274	395
855.52	340
855.767	302
856.013	340
856.26	660
856.506	315
856.752	356
856.998	324
857.244	314
857.49	338
857.736	344
857.982	345
858.228	355
858.474	295
858.72	333
858.966	340
859.212	349
859.458	331
859.703	352
859.949	322
860.195	366
860.44	352
860.686	311
860.931	373
861.177	320
861.422	366
861.667	324
861.913	336
862.158	334
862.403	372
862.648	356
862.893	392
863.138	346
863.384	325
863.629	355
863.873	368
864.118	340
864.363	275
864.608	354
864.853	373
865.098	338
865.342	353
865.587	338
865.832	365
866.076	352
866.321	321
866.565	332
866.81	281
867.054	338
867.298	352
867.543	306
867.787	368
868.031	332
868.275	345
868.519	335
868.764	333
869.008	326
869.252	375
869.496	344
869.739	344
869.983	390
870.227	368
870.471	308
870.715	363
870.958	346
871.202	320
871.446	336
871.689	308
871.933	334
872.176	351
872.42	329
872.663	331
872.906	362
873.15	315
873.393	276
873.636	383
873.879	365
874.122	396
874.366	333
874.609	384
874.852	333
875.095	341
875.337	323
875.58	273
875.823	340
876.066	367
876.309	412
876.551	304
876.794	299
877.037	357
877.279	297
877.522	313
877.764	361
878.007	312
878.249	354
878.491	316
878.734	361
878.976	343
879.218	306
879.46	393
879.702	378
879.945	370
880.187	328
880.429	365
880.671	372
880.912	398
881.154	370
881.396	288
881.638	361
881.88	348
882.121	309
882.363	330
882.605	399
882.846	359
883.088	380
883.329	339
883.571	292
883.812	307
884.053	321
884.295	331
884.536	414
884.777	322
885.018	359
885.259	358
885.5	293
885.742	520
885.982	364
886.223	306
886.464	327
886.705	292
886.946	344
887.187	279
887.428	383
887.668	335
887.909	326
888.15	311
888.39	356
888.631	410
888.871	377
889.111	366
889.352	354
889.592	328
889.833	344
890.073	354
890.313	404
890.553	303
890.793	329
891.033	323
891.273	329
891.513	348
891.753	399
891.993	347
892.233	373
892.473	426
892.713	350
892.952	319
893.192	365
893.432	328
893.671	370
893.911	354
894.15	346
894.39	305
894.629	335
894.869	370
895.108	352
895.347	333
895.587	379
895.826	332
896.065	310
896.304	360
896.543	389
896.782	299
897.021	361
897.26	338
897.499	396
897.738	409
897.977	357
898.216	351
898.454	354
898.693	337
898.932	371
899.17	352
899.409	352
899.647	357
899.886	340
900.124	376
900.363	314
900.601	360
900.839	350
901.078	364
901.316	352
901.554	349
901.792	365
902.03	318
902.268	346
902.506	370
902.744	347
902.982	394
903.22	323
903.458	340
903.695	379
903.933	383
904.171	329
904.409	342
904.646	386
904.884	347
905.121	409
905.359	389
905.596	378
905.833	343
906.071	344
906.308	402
906.545	369
906.783	312
907.02	343
907.257	313
907.494	339
907.731	377
907.968	374
908.205	337
908.442	331
908.679	369
908.915	353
909.152	378
909.389	302
909.626	335
909.862	339
910.099	361
910.335	394
910.572	306
910.808	375
911.045	352
911.281	329
911.518	396
911.754	346
911.99	371
912.226	359
912.463	326
912.699	339
912.935	347
913.171	358
913.407	333
913.643	392
913.879	370
914.114	374
914.35	335
914.586	362
914.822	330
915.057	428
915.293	325
915.529	329
915.764	403
916	389
916.235	381
916.471	408
916.706	307
916.941	349
917.177	351
917.412	397
917.647	376
917.882	329
918.117	402
918.352	374
918.588	438
918.823	362
919.057	369
919.292	289
919.527	413
919.762	363
919.997	439
920.232	377
920.466	435
920.701	318
920.935	381
921.17	359
921.405	337
921.639	419
921.873	368
922.108	395
922.342	410
922.576	338
922.811	362
923.045	416
923.279	419
923.513	306
923.747	415
923.981	404
924.215	357
924.449	364
924.683	338
924.917	367
925.151	370
925.385	445
925.618	392
925.852	396
926.086	323
926.319	388
926.553	367
926.786	391
927.02	367
927.253	416
927.486	411
927.72	353
927.953	410
928.186	366
928.42	397
928.653	360
928.886	341
929.119	398
929.352	383
929.585	404
929.818	347
930.051	415
930.284	413
930.516	336
930.749	358
930.982	433
931.215	412
931.447	343
931.68	370
931.912	365
932.145	366
932.377	387
932.61	514
932.842	326
933.074	398
933.307	333
933.539	453
933.771	430
934.003	383
934.236	441
934.468	460
934.7	372
934.932	419
935.164	368
935.395	354
935.627	381
935.859	407
936.091	351
936.323	413
936.554	449
936.786	403
937.017	342
937.249	407
937.481	335
937.712	416
937.943	395
938.175	377
938.406	373
938.637	452
938.869	341
939.1	412
939.331	371
939.562	404
939.793	398
940.024	431
940.255	449
940.486	388
940.717	401
940.948	394
941.179	349
941.409	380
941.64	380
941.871	379
942.102	362
942.332	378
942.563	406
942.793	394
943.024	339
943.254	381
943.484	434
943.715	447
943.945	407
944.175	342
944.405	326
944.636	345
944.866	393
945.096	390
945.326	345
945.556	404
945.786	422
946.016	391
946.245	350
946.475	361
946.705	373
946.935	393
947.164	396
947.394	376
947.624	396
947.853	431
948.083	422
948.312	383
948.542	338
948.771	332
949	356
949.23	371
949.459	386
949.688	444
949.917	390
950.146	418
950.375	454
950.604	355
950.833	453
951.062	456
951.291	390
951.52	370
951.749	400
951.978	367
952.206	369
952.435	375
952.664	411
952.892	419
953.121	414
953.349	457
953.578	437
953.806	415
954.035	354
954.263	410
954.491	374
954.719	421
954.948	391
955.176	380
955.404	332
955.632	410
955.86	430
956.088	411
956.316	458
956.544	473
956.772	413
956.999	390
957.227	490
957.455	394
957.683	436
957.91	409
958.138	395
958.365	406
958.593	413
958.82	372
959.048	441
959.275	412
959.502	409
959.73	402
959.957	423
960.184	448
960.411	385
960.638	469
960.865	430
961.092	453
961.319	355
961.546	456
961.773	471
962	421
962.227	464
962.454	431
962.68	421
962.907	463
963.134	421
963.36	443
963.587	472
963.813	424
964.04	469
964.266	411
964.493	507
964.719	498
964.945	496
965.171	405
965.398	455
965.624	479
965.85	432
966.076	432
966.302	475
966.528	459
966.754	482
966.98	472
967.206	483
967.431	423
967.657	503
967.883	482
968.109	481
968.334	444
968.56	429
968.785	440
969.011	399
969.236	476
969.462	419
969.687	441
969.912	492
970.138	514
970.363	453
970.588	476
970.813	453
971.038	427
971.263	466
971.488	486
971.713	516
971.938	521
972.163	421
972.388	443
972.613	440
972.838	466
973.062	449
973.287	461
973.512	412
973.736	451
973.961	456
974.185	443
974.41	476
974.634	394
974.858	430
975.083	472
975.307	511
975.531	439
975.755	392
975.98	438
976.204	400
976.428	384
976.652	419
976.876	400
977.1	440
977.324	410
977.547	468
977.771	461
977.995	432
978.219	398
978.442	519
978.666	440
978.89	439
979.113	459
979.337	447
979.56	418
979.783	514
980.007	404
980.23	441
980.453	427
980.677	454
980.9	447
981.123	376
981.346	472
981.569	455
981.792	497
982.015	450
982.238	431
982.461	468
982.684	448
982.907	423
983.129	411
983.352	486
983.575	465
983.797	475
984.02	445
984.242	452
984.465	459
984.687	498
984.91	527
985.132	497
985.354	522
985.577	490
985.799	498
986.021	405
986.243	440
986.465	459
986.687	538
986.909	564
987.131	510
987.353	468
987.575	506
987.797	471
988.019	420
988.241	485
988.462	439
988.684	514
988.906	536
989.127	575
989.349	443
989.57	488
989.792	539
990.013	545
990.234	548
990.456	560
990.677	552
990.898	513
991.119	510
991.341	545
991.562	483
991.783	519
992.004	483
992.225	463
992.446	526
992.667	445
992.887	540
993.108	447
993.329	593
993.55	533
993.77	476
993.991	482
994.212	525
994.432	535
994.653	549
994.873	555
995.093	438
995.314	494
995.534	581
995.754	589
995.975	617
996.195	484
996.415	557
996.635	538
996.855	567
997.075	521
997.295	513
997.515	511
997.735	577
997.955	524
998.174	530
998.394	506
998.614	570
998.834	533
999.053	599
999.273	573
999.492	625
999.712	554
999.931	537
1000.151	598
1000.37	561
1000.589	626
1000.809	562
1001.028	680
1001.247	623
1001.466	545
1001.685	681
1001.904	621
1002.123	612
1002.342	637
1002.561	600
1002.78	620
1002.999	692
1003.218	645
1003.436	618
1003.655	685
1003.874	614
1004.092	657
1004.311	713
1004.53	659
1004.748	719
1004.966	670
1005.185	709
1005.403	697
1005.622	673
1005.84	738
1006.058	670
1006.276	699
1006.494	1182
1006.712	686
1006.931	733
1007.149	655
1007.367	648
1007.584	669
1007.802	707
1008.02	653
1008.238	737
1008.456	725
1008.673	598
1008.891	672
1009.109	631
1009.326	660
1009.544	731
1009.761	592
1009.979	660
1010.196	633
1010.413	673
1010.631	679
1010.848	690
1011.065	665
1011.282	611
1011.5	547
1011.717	670
1011.934	623
1012.151	666
1012.368	620
1012.585	594
1012.801	653
1013.018	614
1013.235	576
1013.452	576
1013.669	604
1013.885	560
1014.102	588
1014.318	570
1014.535	516
1014.751	570
1014.968	568
1015.184	614
1015.401	518
1015.617	572
1015.833	535
1016.049	534
1016.266	545
1016.482	572
1016.698	492
1016.914	574
1017.13	508
1017.346	523
1017.562	586
1017.778	520
1017.993	494
1018.209	581
1018.425	547
1018.641	495
1018.856	489
1019.072	505
1019.288	566
1019.503	517
1019.719	435
1019.934	465
1020.149	550
1020.365	518
1020.58	473
1020.795	553
1021.011	490
1021.226	506
1021.441	554
1021.656	490
1021.871	457
1022.086	481
1022.301	476
1022.516	483
1022.731	522
1022.946	466
1023.16	457
1023.375	456
1023.59	465
1023.804	441
1024.019	543
1024.234	428
1024.448	475
1024.663	410
1024.877	463
1025.092	472
1025.306	489
1025.52	408
1025.734	510
1025.949	447
1026.163	449
1026.377	391
1026.591	449
1026.805	379
1027.019	391
1027.233	359
1027.447	329
1027.661	431
1027.875	386
1028.088	392
1028.302	338
1028.516	339
1028.73	357
1028.943	363
1029.157	331
1029.37	300
1029.584	2
1029.797	0
1030.011	-2
1030.224	-4
