Data from QEP037381__98__10-28-31-077.txt Node

Date: Fri Apr 21 10:28:31 EDT 2023
User: dcclab
Spectrometer: QEP03738
Trigger mode: 4
Integration Time (sec): 1.000000E1
Scans to average: 1
Electric dark correction enabled: true
Nonlinearity correction enabled: false
Boxcar width: 0
XAxis mode: Wavelengths
Number of Pixels in Spectrum: 1044
>>>>>Begin Spectral Data<<<<<
784.041	12
784.3	4
784.558	-2
784.817	-4
785.075	232
785.334	205
785.592	208
785.851	188
786.109	226
786.368	227
786.626	263
786.884	267
787.143	259
787.401	215
787.659	280
787.917	253
788.175	310
788.433	269
788.691	271
788.949	276
789.207	309
789.465	265
789.723	265
789.98	249
790.238	323
790.496	298
790.753	295
791.011	350
791.268	305
791.526	299
791.783	329
792.041	331
792.298	250
792.556	327
792.813	317
793.07	298
793.327	277
793.584	374
793.841	300
794.099	315
794.356	377
794.613	290
794.869	324
795.126	299
795.383	281
795.64	313
795.897	269
796.153	321
796.41	310
796.667	297
796.923	291
797.18	305
797.436	322
797.693	289
797.949	338
798.206	360
798.462	273
798.718	321
798.974	303
799.231	329
799.487	324
799.743	324
799.999	348
800.255	334
800.511	309
800.767	346
801.023	305
801.279	323
801.534	334
801.79	335
802.046	296
802.302	347
802.557	328
802.813	340
803.068	279
803.324	337
803.579	302
803.835	301
804.09	349
804.345	291
804.601	269
804.856	300
805.111	330
805.366	298
805.621	322
805.876	353
806.131	323
806.386	298
806.641	275
806.896	307
807.151	371
807.406	317
807.661	334
807.915	319
808.17	332
808.425	335
808.679	277
808.934	367
809.188	299
809.443	342
809.697	360
809.951	296
810.206	307
810.46	350
810.714	328
810.968	366
811.223	282
811.477	322
811.731	335
811.985	258
812.239	240
812.493	295
812.747	310
813	266
813.254	324
813.508	337
813.762	286
814.015	294
814.269	309
814.522	327
814.776	338
815.03	331
815.283	338
815.536	335
815.79	334
816.043	330
816.296	323
816.55	314
816.803	310
817.056	405
817.309	323
817.562	334
817.815	367
818.068	283
818.321	293
818.574	283
818.827	351
819.079	285
819.332	399
819.585	342
819.838	399
820.09	292
820.343	365
820.595	285
820.848	325
821.1	355
821.353	323
821.605	323
821.857	386
822.11	283
822.362	284
822.614	282
822.866	317
823.118	260
823.37	375
823.622	302
823.874	300
824.126	345
824.378	281
824.63	305
824.882	331
825.134	299
825.385	356
825.637	319
825.888	310
826.14	322
826.392	292
826.643	295
826.895	385
827.146	312
827.397	314
827.649	385
827.9	302
828.151	298
828.402	292
828.653	325
828.905	329
829.156	389
829.407	290
829.658	304
829.909	353
830.159	339
830.41	339
830.661	373
830.912	333
831.162	304
831.413	315
831.664	356
831.914	315
832.165	323
832.415	333
832.666	346
832.916	353
833.167	313
833.417	390
833.667	349
833.917	330
834.168	383
834.418	348
834.668	322
834.918	281
835.168	312
835.418	256
835.668	332
835.918	358
836.167	341
836.417	289
836.667	358
836.917	378
837.166	324
837.416	371
837.666	373
837.915	327
838.165	345
838.414	293
838.663	275
838.913	338
839.162	293
839.411	385
839.661	313
839.91	321
840.159	324
840.408	341
840.657	310
840.906	330
841.155	365
841.404	324
841.653	343
841.902	308
842.15	335
842.399	336
842.648	325
842.897	347
843.145	287
843.394	298
843.642	310
843.891	353
844.139	335
844.388	299
844.636	273
844.884	307
845.133	296
845.381	326
845.629	353
845.877	296
846.125	301
846.373	329
846.621	293
846.869	346
847.117	318
847.365	318
847.613	334
847.861	355
848.108	392
848.356	342
848.604	312
848.851	341
849.099	323
849.346	327
849.594	350
849.841	350
850.089	327
850.336	299
850.583	300
850.831	320
851.078	327
851.325	296
851.572	373
851.819	369
852.066	314
852.313	315
852.56	299
852.807	287
853.054	291
853.301	322
853.548	311
853.794	405
854.041	332
854.288	283
854.534	390
854.781	314
855.028	295
855.274	400
855.52	322
855.767	308
856.013	353
856.26	635
856.506	304
856.752	353
856.998	319
857.244	312
857.49	340
857.736	342
857.982	337
858.228	354
858.474	300
858.72	334
858.966	343
859.212	341
859.458	329
859.703	357
859.949	312
860.195	372
860.44	355
860.686	302
860.931	382
861.177	314
861.422	376
861.667	318
861.913	321
862.158	340
862.403	377
862.648	360
862.893	375
863.138	328
863.384	315
863.629	359
863.873	352
864.118	337
864.363	282
864.608	345
864.853	375
865.098	343
865.342	355
865.587	337
865.832	375
866.076	353
866.321	319
866.565	334
866.81	272
867.054	344
867.298	350
867.543	308
867.787	364
868.031	337
868.275	341
868.519	333
868.764	332
869.008	335
869.252	375
869.496	342
869.739	345
869.983	383
870.227	367
870.471	308
870.715	353
870.958	356
871.202	316
871.446	330
871.689	300
871.933	337
872.176	344
872.42	331
872.663	322
872.906	369
873.15	324
873.393	280
873.636	380
873.879	382
874.122	396
874.366	350
874.609	370
874.852	333
875.095	337
875.337	310
875.58	269
875.823	352
876.066	368
876.309	407
876.551	311
876.794	287
877.037	364
877.279	303
877.522	318
877.764	372
878.007	315
878.249	345
878.491	305
878.734	368
878.976	352
879.218	291
879.46	389
879.702	376
879.945	370
880.187	341
880.429	367
880.671	365
880.912	376
881.154	372
881.396	294
881.638	354
881.88	351
882.121	297
882.363	328
882.605	402
882.846	358
883.088	374
883.329	335
883.571	303
883.812	313
884.053	312
884.295	333
884.536	404
884.777	333
885.018	343
885.259	366
885.5	304
885.742	510
885.982	346
886.223	310
886.464	324
886.705	299
886.946	352
887.187	286
887.428	370
887.668	325
887.909	309
888.15	306
888.39	364
888.631	402
888.871	366
889.111	363
889.352	358
889.592	324
889.833	336
890.073	351
890.313	406
890.553	308
890.793	352
891.033	311
891.273	333
891.513	353
891.753	413
891.993	359
892.233	363
892.473	430
892.713	369
892.952	307
893.192	369
893.432	327
893.671	373
893.911	344
894.15	346
894.39	290
894.629	335
894.869	368
895.108	348
895.347	320
895.587	359
895.826	340
896.065	313
896.304	375
896.543	376
896.782	297
897.021	364
897.26	341
897.499	401
897.738	414
897.977	350
898.216	346
898.454	336
898.693	327
898.932	383
899.17	347
899.409	348
899.647	355
899.886	328
900.124	360
900.363	331
900.601	356
900.839	353
901.078	349
901.316	348
901.554	346
901.792	370
902.03	311
902.268	347
902.506	392
902.744	339
902.982	390
903.22	326
903.458	335
903.695	375
903.933	384
904.171	330
904.409	334
904.646	381
904.884	353
905.121	412
905.359	377
905.596	381
905.833	325
906.071	340
906.308	394
906.545	359
906.783	316
907.02	348
907.257	298
907.494	340
907.731	355
907.968	388
908.205	332
908.442	334
908.679	363
908.915	357
909.152	373
909.389	303
909.626	343
909.862	336
910.099	366
910.335	413
910.572	305
910.808	361
911.045	336
911.281	340
911.518	410
911.754	364
911.99	385
912.226	351
912.463	317
912.699	343
912.935	350
913.171	356
913.407	334
913.643	397
913.879	370
914.114	349
914.35	349
914.586	367
914.822	335
915.057	448
915.293	313
915.529	334
915.764	411
916	392
916.235	394
916.471	401
916.706	317
916.941	351
917.177	351
917.412	377
917.647	387
917.882	318
918.117	402
918.352	370
918.588	426
918.823	346
919.057	371
919.292	301
919.527	419
919.762	357
919.997	424
920.232	360
920.466	430
920.701	314
920.935	388
921.17	374
921.405	324
921.639	408
921.873	371
922.108	401
922.342	394
922.576	330
922.811	354
923.045	406
923.279	425
923.513	310
923.747	410
923.981	400
924.215	348
924.449	368
924.683	337
924.917	348
925.151	372
925.385	440
925.618	387
925.852	404
926.086	333
926.319	387
926.553	365
926.786	395
927.02	379
927.253	414
927.486	414
927.72	337
927.953	414
928.186	362
928.42	409
928.653	351
928.886	345
929.119	385
929.352	388
929.585	401
929.818	350
930.051	391
930.284	411
930.516	336
930.749	353
930.982	418
931.215	405
931.447	346
931.68	377
931.912	351
932.145	366
932.377	387
932.61	503
932.842	315
933.074	398
933.307	335
933.539	433
933.771	424
934.003	363
934.236	447
934.468	450
934.7	378
934.932	408
935.164	365
935.395	358
935.627	384
935.859	398
936.091	340
936.323	425
936.554	445
936.786	392
937.017	335
937.249	405
937.481	333
937.712	408
937.943	389
938.175	371
938.406	367
938.637	461
938.869	347
939.1	422
939.331	356
939.562	414
939.793	404
940.024	425
940.255	449
940.486	400
940.717	399
940.948	407
941.179	364
941.409	382
941.64	380
941.871	397
942.102	367
942.332	386
942.563	413
942.793	402
943.024	345
943.254	389
943.484	416
943.715	420
943.945	404
944.175	332
944.405	325
944.636	332
944.866	395
945.096	407
945.326	325
945.556	398
945.786	421
946.016	384
946.245	347
946.475	358
946.705	369
946.935	397
947.164	398
947.394	373
947.624	400
947.853	435
948.083	422
948.312	392
948.542	346
948.771	322
949	359
949.23	368
949.459	378
949.688	438
949.917	391
950.146	400
950.375	469
950.604	344
950.833	444
951.062	460
951.291	395
951.52	377
951.749	395
951.978	361
952.206	377
952.435	379
952.664	415
952.892	433
953.121	425
953.349	444
953.578	445
953.806	412
954.035	366
954.263	417
954.491	375
954.719	415
954.948	378
955.176	391
955.404	330
955.632	404
955.86	417
956.088	411
956.316	438
956.544	462
956.772	409
956.999	400
957.227	481
957.455	400
957.683	426
957.91	412
958.138	403
958.365	399
958.593	403
958.82	353
959.048	445
959.275	420
959.502	411
959.73	379
959.957	427
960.184	451
960.411	389
960.638	477
960.865	420
961.092	447
961.319	364
961.546	456
961.773	469
962	416
962.227	478
962.454	435
962.68	421
962.907	463
963.134	413
963.36	435
963.587	489
963.813	426
964.04	471
964.266	421
964.493	506
964.719	479
964.945	490
965.171	398
965.398	456
965.624	489
965.85	425
966.076	438
966.302	468
966.528	451
966.754	468
966.98	490
967.206	484
967.431	428
967.657	517
967.883	487
968.109	476
968.334	423
968.56	412
968.785	449
969.011	413
969.236	482
969.462	432
969.687	450
969.912	496
970.138	523
970.363	432
970.588	477
970.813	443
971.038	430
971.263	475
971.488	476
971.713	509
971.938	506
972.163	411
972.388	443
972.613	442
972.838	461
973.062	475
973.287	463
973.512	396
973.736	453
973.961	454
974.185	442
974.41	504
974.634	391
974.858	424
975.083	483
975.307	506
975.531	447
975.755	396
975.98	434
976.204	392
976.428	395
976.652	407
976.876	388
977.1	436
977.324	398
977.547	470
977.771	475
977.995	434
978.219	394
978.442	496
978.666	459
978.89	446
979.113	444
979.337	449
979.56	414
979.783	505
980.007	397
980.23	453
980.453	420
980.677	469
980.9	456
981.123	376
981.346	480
981.569	451
981.792	479
982.015	449
982.238	433
982.461	459
982.684	432
982.907	425
983.129	421
983.352	477
983.575	465
983.797	494
984.02	418
984.242	461
984.465	436
984.687	476
984.91	526
985.132	481
985.354	511
985.577	479
985.799	490
986.021	409
986.243	449
986.465	470
986.687	526
986.909	550
987.131	504
987.353	472
987.575	501
987.797	466
988.019	416
988.241	492
988.462	444
988.684	522
988.906	543
989.127	557
989.349	453
989.57	493
989.792	515
990.013	535
990.234	547
990.456	564
990.677	560
990.898	493
991.119	509
991.341	551
991.562	476
991.783	536
992.004	477
992.225	454
992.446	545
992.667	452
992.887	546
993.108	451
993.329	586
993.55	532
993.77	467
993.991	505
994.212	541
994.432	535
994.653	552
994.873	551
995.093	447
995.314	508
995.534	571
995.754	585
995.975	603
996.195	494
996.415	557
996.635	518
996.855	566
997.075	528
997.295	518
997.515	510
997.735	563
997.955	540
998.174	547
998.394	503
998.614	568
998.834	518
999.053	603
999.273	565
999.492	606
999.712	565
999.931	551
1000.151	589
1000.37	573
1000.589	644
1000.809	580
1001.028	696
1001.247	625
1001.466	525
1001.685	672
1001.904	628
1002.123	620
1002.342	630
1002.561	606
1002.78	619
1002.999	693
1003.218	636
1003.436	631
1003.655	673
1003.874	623
1004.092	658
1004.311	692
1004.53	657
1004.748	721
1004.966	637
1005.185	722
1005.403	703
1005.622	690
1005.84	740
1006.058	663
1006.276	689
1006.494	1176
1006.712	689
1006.931	754
1007.149	647
1007.367	652
1007.584	660
1007.802	714
1008.02	655
1008.238	728
1008.456	711
1008.673	594
1008.891	694
1009.109	618
1009.326	664
1009.544	713
1009.761	579
1009.979	650
1010.196	610
1010.413	678
1010.631	664
1010.848	669
1011.065	674
1011.282	615
1011.5	550
1011.717	679
1011.934	617
1012.151	663
1012.368	649
1012.585	577
1012.801	646
1013.018	620
1013.235	573
1013.452	586
1013.669	600
1013.885	562
1014.102	599
1014.318	554
1014.535	537
1014.751	576
1014.968	577
1015.184	611
1015.401	537
1015.617	577
1015.833	525
1016.049	549
1016.266	550
1016.482	559
1016.698	499
1016.914	558
1017.13	508
1017.346	517
1017.562	571
1017.778	518
1017.993	481
1018.209	540
1018.425	524
1018.641	508
1018.856	460
1019.072	507
1019.288	554
1019.503	507
1019.719	431
1019.934	454
1020.149	550
1020.365	486
1020.58	454
1020.795	525
1021.011	500
1021.226	495
1021.441	543
1021.656	494
1021.871	442
1022.086	478
1022.301	477
1022.516	475
1022.731	530
1022.946	478
1023.16	460
1023.375	452
1023.59	455
1023.804	432
1024.019	546
1024.234	427
1024.448	471
1024.663	417
1024.877	444
1025.092	482
1025.306	485
1025.52	407
1025.734	502
1025.949	451
1026.163	436
1026.377	389
1026.591	446
1026.805	375
1027.019	405
1027.233	363
1027.447	324
1027.661	433
1027.875	373
1028.088	398
1028.302	330
1028.516	331
1028.73	363
1028.943	366
1029.157	332
1029.37	311
1029.584	-6
1029.797	-2
1030.011	1
1030.224	-3
